WL(nm)	PL	PE(mW/nm)
380	0.0033	2.1210
381	0.0029	1.8855
382	0.0026	1.6972
383	0.0024	1.5229
384	0.0021	1.3639
385	0.0020	1.2834
386	0.0019	1.2152
387	0.0018	1.1755
388	0.0017	1.1216
389	0.0016	1.0065
390	0.0015	0.9800
391	0.0014	0.9270
392	0.0014	0.8979
393	0.0013	0.8545
394	0.0013	0.8559
395	0.0013	0.8414
396	0.0012	0.7914
397	0.0012	0.7495
398	0.0012	0.7985
399	0.0012	0.7792
400	0.0012	0.7845
401	0.0013	0.8432
402	0.0013	0.8653
403	0.0014	0.9014
404	0.0016	1.0257
405	0.0017	1.0784
406	0.0019	1.2127
407	0.0021	1.3633
408	0.0024	1.5636
409	0.0028	1.8078
410	0.0033	2.1292
411	0.0039	2.5201
412	0.0047	3.0323
413	0.0055	3.5702
414	0.0065	4.2242
415	0.0078	5.0124
416	0.0093	5.9967
417	0.0112	7.2199
418	0.0131	8.4746
419	0.0162	10.4502
420	0.0191	12.3805
421	0.0230	14.8475
422	0.0269	17.4139
423	0.0327	21.1522
424	0.0388	25.0744
425	0.0462	29.8919
426	0.0538	34.7711
427	0.0633	40.9280
428	0.0738	47.7103
429	0.0873	56.4393
430	0.1023	66.1263
431	0.1195	77.2587
432	0.1375	88.8976
433	0.1575	101.8466
434	0.1826	118.0631
435	0.2092	135.2774
436	0.2369	153.1916
437	0.2690	173.9536
438	0.3047	197.0207
439	0.3497	226.1157
440	0.3944	254.9960
441	0.4560	294.8331
442	0.5118	330.9240
443	0.5790	374.3679
444	0.6532	422.3690
445	0.7255	469.1035
446	0.7931	512.8286
447	0.8611	556.7676
448	0.9179	593.4985
449	0.9669	625.2343
450	0.9975	644.9779
451	1.0000	646.6122
452	0.9915	641.1176
453	0.9686	626.3407
454	0.9024	583.4941
455	0.8347	539.7543
456	0.7672	496.0742
457	0.6959	449.9911
458	0.6321	408.7119
459	0.5677	367.0859
460	0.5136	332.1102
461	0.4706	304.3198
462	0.4297	277.8362
463	0.3992	258.1048
464	0.3629	234.6705
465	0.3364	217.5437
466	0.3085	199.4736
467	0.2819	182.2910
468	0.2583	167.0297
469	0.2334	150.9404
470	0.2062	133.3589
471	0.1837	118.7990
472	0.1645	106.3373
473	0.1453	93.9412
474	0.1287	83.1971
475	0.1146	74.0783
476	0.1029	66.5456
477	0.0927	59.9124
478	0.0834	53.8993
479	0.0748	48.3471
480	0.0684	44.2516
481	0.0619	40.0017
482	0.0565	36.5605
483	0.0511	33.0294
484	0.0469	30.3229
485	0.0420	27.1336
486	0.0380	24.5394
487	0.0343	22.1869
488	0.0309	19.9683
489	0.0275	17.7739
490	0.0245	15.8587
491	0.0219	14.1616
492	0.0196	12.6910
493	0.0177	11.4737
494	0.0160	10.3232
495	0.0146	9.4166
496	0.0132	8.5307
497	0.0120	7.7906
498	0.0110	7.1414
499	0.0101	6.5061
500	0.0092	5.9362
501	0.0084	5.4409
502	0.0078	5.0551
503	0.0071	4.5863
504	0.0066	4.2828
505	0.0060	3.9093
506	0.0055	3.5368
507	0.0052	3.3561
508	0.0047	3.0631
509	0.0044	2.8400
510	0.0040	2.6117
511	0.0038	2.4324
512	0.0035	2.2566
513	0.0033	2.1444
514	0.0031	2.0155
515	0.0029	1.8899
516	0.0028	1.8231
517	0.0027	1.7342
518	0.0025	1.6342
519	0.0025	1.5945
520	0.0023	1.4949
521	0.0022	1.4358
522	0.0021	1.3693
523	0.0020	1.3119
524	0.0020	1.3242
525	0.0019	1.2188
526	0.0019	1.2001
527	0.0019	1.2075
528	0.0018	1.1468
529	0.0018	1.1330
530	0.0017	1.0857
531	0.0016	1.0589
532	0.0016	1.0597
533	0.0016	1.0404
534	0.0016	1.0025
535	0.0015	0.9771
536	0.0015	0.9864
537	0.0015	0.9763
538	0.0015	0.9587
539	0.0015	0.9425
540	0.0015	0.9474
541	0.0014	0.9357
542	0.0014	0.9307
543	0.0014	0.9123
544	0.0014	0.9113
545	0.0015	0.9376
546	0.0014	0.9131
547	0.0014	0.9320
548	0.0014	0.9167
549	0.0014	0.8958
550	0.0014	0.9243
551	0.0014	0.8956
552	0.0014	0.8948
553	0.0014	0.9141
554	0.0014	0.9029
555	0.0014	0.9237
556	0.0014	0.9216
557	0.0014	0.9307
558	0.0015	0.9420
559	0.0015	0.9445
560	0.0010	0.6263
561	0.0010	0.6671
562	0.0010	0.6657
563	0.0010	0.6721
564	0.0011	0.7145
565	0.0011	0.7097
566	0.0011	0.7328
567	0.0012	0.7600
568	0.0012	0.8075
569	0.0013	0.8294
570	0.0013	0.8718
571	0.0014	0.9179
572	0.0015	0.9700
573	0.0016	1.0315
574	0.0017	1.0839
575	0.0018	1.1463
576	0.0019	1.2170
577	0.0021	1.3549
578	0.0022	1.4310
579	0.0024	1.5485
580	0.0026	1.7098
581	0.0029	1.8441
582	0.0031	2.0135
583	0.0034	2.1951
584	0.0037	2.4015
585	0.0040	2.6155
586	0.0045	2.8819
587	0.0049	3.1427
588	0.0055	3.5393
589	0.0060	3.8613
590	0.0066	4.2422
591	0.0073	4.7371
592	0.0081	5.2362
593	0.0090	5.7937
594	0.0099	6.4333
595	0.0109	7.0499
596	0.0121	7.8528
597	0.0134	8.6738
598	0.0149	9.6462
599	0.0167	10.7701
600	0.0185	11.9537
601	0.0204	13.2033
602	0.0227	14.6987
603	0.0249	16.0999
604	0.0277	17.9153
605	0.0308	19.9222
606	0.0340	21.9725
607	0.0376	24.3373
608	0.0416	26.9050
609	0.0460	29.7386
610	0.0512	33.1179
611	0.0566	36.6216
612	0.0621	40.1447
613	0.0691	44.6504
614	0.0760	49.1168
615	0.0836	54.0533
616	0.0919	59.4042
617	0.1008	65.1631
618	0.1119	72.3454
619	0.1239	80.1203
620	0.1372	88.6938
621	0.1513	97.8363
622	0.1657	107.1343
623	0.1831	118.3880
624	0.2014	130.2571
625	0.2192	141.7185
626	0.2403	155.3821
627	0.2616	169.1790
628	0.2836	183.3943
629	0.3096	200.1738
630	0.3401	219.9390
631	0.3635	235.0341
632	0.3967	256.4957
633	0.4262	275.5793
634	0.4561	294.8958
635	0.4862	314.4098
636	0.5134	331.9602
637	0.5383	348.0654
638	0.5493	355.1814
639	0.5606	362.4998
640	0.5518	356.8298
641	0.5298	342.5506
642	0.4928	318.6536
643	0.4508	291.5044
644	0.4045	261.5728
645	0.3527	228.0381
646	0.2987	193.1625
647	0.2558	165.4265
648	0.2144	138.6183
649	0.1785	115.4320
650	0.1486	96.0936
651	0.1241	80.2343
652	0.1019	65.8661
653	0.0851	55.0448
654	0.0702	45.3776
655	0.0586	37.8887
656	0.0493	31.8462
657	0.0407	26.3440
658	0.0340	21.9678
659	0.0282	18.2334
660	0.0223	14.4139
661	0.0186	11.9967
662	0.0157	10.1326
663	0.0133	8.6303
664	0.0114	7.3730
665	0.0097	6.2801
666	0.0084	5.4563
667	0.0073	4.6885
668	0.0064	4.1076
669	0.0054	3.5095
670	0.0048	3.0925
671	0.0041	2.6551
672	0.0036	2.3011
673	0.0032	2.0372
674	0.0028	1.8239
675	0.0025	1.5849
676	0.0022	1.4093
677	0.0020	1.2716
678	0.0017	1.0897
679	0.0015	0.9816
680	0.0014	0.8966
681	0.0013	0.8171
682	0.0012	0.7691
683	0.0011	0.6857
684	0.0010	0.6537
685	0.0010	0.6234
686	0.0009	0.5719
687	0.0008	0.5236
688	0.0007	0.4751
689	0.0007	0.4443
690	0.0007	0.4419
691	0.0006	0.4116
692	0.0006	0.4018
693	0.0006	0.3828
694	0.0006	0.3653
695	0.0006	0.3704
696	0.0005	0.3386
697	0.0005	0.3489
698	0.0005	0.3292
699	0.0005	0.3314
700	0.0005	0.3040
701	0.0005	0.3078
702	0.0004	0.2807
703	0.0004	0.2836
704	0.0004	0.2657
705	0.0004	0.2612
706	0.0004	0.2558
707	0.0004	0.2533
708	0.0004	0.2460
709	0.0004	0.2348
710	0.0003	0.2255
711	0.0004	0.2549
712	0.0004	0.2298
713	0.0003	0.2236
714	0.0004	0.2302
715	0.0004	0.2365
716	0.0003	0.2012
717	0.0003	0.2151
718	0.0003	0.2102
719	0.0003	0.2191
720	0.0003	0.1903
721	0.0004	0.2264
722	0.0003	0.2017
723	0.0003	0.2012
724	0.0003	0.1952
725	0.0003	0.2043
726	0.0003	0.1781
727	0.0003	0.1807
728	0.0003	0.1853
729	0.0003	0.1866
730	0.0002	0.1576
731	0.0003	0.1909
732	0.0003	0.1739
733	0.0003	0.1966
734	0.0003	0.2014
735	0.0003	0.1840
736	0.0003	0.1707
737	0.0003	0.2120
738	0.0003	0.1841
739	0.0003	0.1898
740	0.0003	0.1841
741	0.0003	0.1780
742	0.0003	0.2022
743	0.0003	0.1928
744	0.0003	0.1780
745	0.0003	0.1849
746	0.0003	0.1829
747	0.0003	0.1807
748	0.0003	0.1859
749	0.0003	0.1767
750	0.0003	0.1861
751	0.0003	0.1887
752	0.0003	0.1761
753	0.0003	0.1819
754	0.0003	0.2171
755	0.0003	0.1626
756	0.0003	0.1699
757	0.0003	0.1909
758	0.0003	0.2066
759	0.0003	0.1731
760	0.0003	0.1916
761	0.0003	0.1949
762	0.0003	0.1997
763	0.0003	0.2014
764	0.0003	0.2121
765	0.0003	0.1810
766	0.0003	0.2150
767	0.0003	0.1979
768	0.0003	0.1815
769	0.0003	0.2051
770	0.0004	0.2361
771	0.0003	0.1956
772	0.0004	0.2468
773	0.0004	0.2751
774	0.0004	0.2323
775	0.0004	0.2773
776	0.0003	0.1988
777	0.0004	0.2270
778	0.0004	0.2350
779	0.0003	0.1966
780	0.0004	0.2427
781	0.0004	0.2595
782	0.0003	0.2184
783	0.0004	0.2674
784	0.0004	0.2349
785	0.0004	0.2428
786	0.0004	0.2367
787	0.0003	0.2213
788	0.0004	0.2384
789	0.0004	0.2406
790	0.0004	0.2334
791	0.0004	0.2361
792	0.0005	0.3016
793	0.0004	0.2819
794	0.0004	0.2544
795	0.0004	0.2383
796	0.0004	0.2542
797	0.0005	0.2924
798	0.0004	0.2586
799	0.0005	0.3081
800	0.0005	0.3370
